Stokes I Q U V
 Time (s)               Data...
  2.20000002E-05  20.3114967  7.2622776  10.3081245 -3.63384724
  4.40000003E-05  22.281395  0.291973382  5.7361517 -2.10749435
  6.60000005E-05  29.4553547  5.51970148  8.34969234 -4.28633404
  8.80000007E-05  33.6009636  3.12334871  11.6114464 -2.10749435
  0.000110000001  42.3037987  2.46957207  14.4456558 -7.77014685
  0.000132000001  43.8326759 -2.32064772  16.8385277 -5.16020012
  0.000153999994  52.9765358 -2.75815606  18.1487465 -7.9915266
  0.000176000001  59.9446831 -1.88562524  16.1903152 -4.93882084
  0.000197999994  66.7070236  2.03454947  16.4040871 -7.11766005
  0.000220000002  81.5253677  8.13232231  3.99149251 -11.9064465
  0.000241999995  98.7252274  11.8337431 -6.89711142 -7.33321381
  0.000264000002  125.068947  17.7152481 -30.8534184 -8.85956669
  0.000285999995  151.442078  30.9995937 -44.7969017 -10.1645403
  0.000307999988  175.610077  35.7922974 -66.5741043 -11.2539597
  0.00033000001  205.011551  40.5825195 -86.8273239 -6.68072701
  0.000352000003  232.23732  46.8990479 -101.639687 -6.46517372
  0.000373999996  252.053909  51.2542419 -116.231384 -5.59130716
  0.000395999989  254.023819  48.6416206 -119.934471 -1.45500755
  0.000418000011  256.846344  46.6827774 -120.803352 -2.10749435
  0.000440000003  252.494934  46.4640236 -110.78363  6.16510534
  0.000461999996  241.58699  45.5939789 -96.8470459  5.0756855
  0.000483999989  229.179565  40.8012733 -75.5042801  4.20764494
  0.000506000011  217.213165  37.0998535 -64.3950043 -1.45500755
  0.000528000004  205.452576  29.6945267 -46.7553329 -0.581141412
  0.000549999997  196.308716  26.2093735 -45.0106735 -12.7803125
  0.00057199999  192.604141  19.8928471 -35.2116203 -9.29650021
  0.000593999983  190.840042  23.5967522 -32.3774109 -10.6014738
  0.000615999976  196.514526  20.765377 -30.8534184 -14.9591522
  0.000638000027  202.600632  10.9636974 -35.4322853 -14.7377729
  0.00066000002  213.067566  14.0138273 -31.9429684 -20.6218052
  0.000682000013  222.211426  11.1824522 -34.9909515 -25.8475246
  0.000704000005  235.500885  11.6174746 -32.8187447 -26.5000114
  0.000725999998  247.702499  10.3099213 -40.4387016 -23.4531307
  0.000747999991  267.283875  6.38974667 -39.7835922 -28.2419186
  0.000769999984  284.277924  15.1026268 -41.9626923 -24.7581043
  0.000791999977  301.713013  17.4964943 -47.1897736 -28.4632969
  0.000814000028  320.882782  20.1116009 -54.5959549 -23.4531307
  0.000836000021  341.993011  27.7331963 -60.6919174 -25.8475246
  0.000858000014  358.781281  28.6057262 -60.9125862 -25.1950378
  0.000880000007  371.394501  32.9609222 -63.9605675 -23.8900642
  0.000902  384.24295  40.5825195 -63.3054581 -19.9693184
  0.000923999993  380.12674  36.6623459 -62.4365768 -11.2539597
  0.000945999986  375.099091  39.9312286 -58.2990456 -10.1645403
  0.000967999978  358.34024  42.3250961 -58.954155 -7.55459356
  0.000989999971  351.577911  41.4550514 -56.1199455 -4.28633404
  0.00101200002  333.496002  41.0200272 -62.4365768  1.59187245
  0.00103399996  316.737152  32.0908775 -65.0501175  7.69145823
  0.00105600001  308.445953  20.5466232 -73.7596207  7.03897142
  0.00107799994  304.770752  15.9726715 -77.0282745  6.60203838
  0.00109999999  299.978333  3.12334871 -80.2969208  5.0756855
  0.00112200005  300.625153 -9.72597408 -80.0762558  0.286898971
  0.00114399998  311.944733 -17.5663242 -78.986702 -3.63384724
  0.00116600003  318.030823 -31.2881775 -68.7532043 -10.8228531
  0.00118799997  330.673462 -36.2971497 -68.3187637 -18.8798981
  0.00121000002  335.465912 -48.2764282 -53.5064049 -32.1626625
  0.00123199995  353.106781 -50.4540291 -43.4866829 -32.5995979
  0.001254  367.4841 -51.326561 -41.3075829 -41.5305099
  0.00127600005  398.62027 -48.9302063 -37.6044922 -44.1404572
  0.00129799999  437.400818 -43.9212341 -39.3491516 -42.1829948
  0.00132000004  483.355316 -31.2881775 -56.5543861 -45.8823624
  0.00134199997  541.717224 -17.5663242 -71.366745 -57.8659821
  0.00136400003  610.546082 -3.62820125 -91.185524 -82.037117
  0.00138599996  695.486938 -3.62820125 -118.410484 -101.203918
  0.00140800001  808.506226  7.9135685 -146.283646 -123.85453
  0.00142999995  959.218201 -6.6783309 -178.735687 -163.493103
  0.001452  1156.76672 -16.6962776 -202.692001 -214.45697
  0.00147400005  1377.39539 -41.3061256 -201.82312 -252.790573
  0.00149599998  1585.17554 -46.3150978 -167.412643 -256.053009
  0.00151800003  1757.67395 -52.6316261 -108.390762 -230.355515
  0.00153999997  1872.66321 -41.0898552 -38.4802704 -163.930023
  0.00156200002  1921.67542 -23.4478283  29.9062328 -104.687729
  0.00158399995  1913.41357 -13.4298811  85.6663666 -37.6097641
  0.00160600001  1842.61487  1.16201842  140.55072  26.6427021
  0.00162800006  1717.80566  16.8452034  188.242676  81.0903931
  0.00164999999  1527.01941  22.7242222  228.755997  121.160065
  0.00167200004  1302.68616  27.9519501  249.229889  125.739128
  0.00169399998  1074.00159  22.0704441  232.017746  100.688293
  0.00171600003  879.745972  11.1824522  201.744812  66.7123795
  0.00173799996  728.151978  17.4964943  166.031021  42.756794
  0.00176000001  610.310852  15.3188953  134.447861  32.95784
  0.00178199995  516.226135  14.0138273  95.6791916  14.443531
  0.001804  434.137238  7.9135685  77.384407  2.24435925
  0.00182600005  373.80542  5.51970148  60.3998413 -3.1969142
  0.00184799999  326.322052  3.55837131  45.5874748 -12.5647593
  0.00187000004  291.892914 -1.45060265  37.5330811 -18.0060329
  0.00189199997  261.403595 -6.6783309  32.3059998 -19.9693184
  0.00191400002  246.173615 -4.50073195  31.8715591 -24.3211727
  0.00193599996  229.385376 -11.4685507  26.8582497 -23.2317524
  0.00195800001  223.09346 -9.5097065  24.8998184 -28.0263653
  0.00197999994  219.594696 -9.07219791  22.5000496 -31.2946243
  0.00200200011  219.153671 -9.29095173  22.2862778 -30.8576908
  0.00202400004  217.418976 -5.37077713  21.6311684 -30.8576908
  0.00204599998  218.065811 -16.2612553  26.4238091 -29.7682705
  0.00206799991  218.506836 -13.2111263  24.8998184 -21.4898453
  0.00209000008  218.947861 -13.8649035  25.9893684 -18.6585197
  0.00211200002  209.568787 -31.0694237  26.8582497 -17.7904797
  0.00213399995  211.979706 -35.6433754  26.4238091 -10.1645403
  0.00215599989  208.069305 -33.4657745  30.7820091 -1.23945391
  0.00217800005  208.069305 -42.8324318  36.2228622  6.60203838
  0.00219999999  204.129517 -54.809227  39.7121811  17.7117901
  0.00222199992  205.011551 -60.690731  47.7665749  20.3217373
  0.00224400009  214.361221 -73.5400543  52.5592155  39.0516014
  0.00226600002  227.209671 -84.4305344  56.0416412  48.8563805
  0.00228799996  235.500885 -98.1499023  61.0549469  52.3401947
  0.00230999989  240.49913 -104.685181  64.3167038  61.2711067
  0.00233200006  242.028015 -110.782951  60.8342819  65.8443375
  0.002354  242.263229 -111.217979  64.7580414  61.2711067
  0.00237599993  234.618835 -111.653  63.013382  54.9559669
  0.0023980001  224.622345 -109.040382  67.58535  52.1246414
  0.00242000003  209.804001 -107.081535  65.8475876  46.2406082
  0.00244199997  192.163116 -98.1499023  66.7164688  39.9254684
  0.0024639999  179.314667 -87.6969299  68.8955688  36.0047226
  0.00248600007  169.494583 -80.9453812  69.7644501  35.7891693
  0.00250800001  158.821838 -76.1526718  73.9019852  30.1265163
  0.00252999994  150.119003 -77.0252075  67.1509094  25.9843903
  0.00255200011  141.416168 -55.4630013  70.1988907  30.3420696
  0.00257400004  129.420364 -55.4630013  68.4611282  25.1163502
  0.00259599998  120.511719 -46.9688759  61.9238319  24.2424831
  0.00261799991  107.428062 -38.6935043  59.7447319  19.4536972
  0.00264000008  96.1084976 -35.4271049  52.5592155  18.5798302
  0.00266200001  94.5796204 -28.6755562  51.0352249  12.7016239
  0.00268399995  80.202301 -24.1016045  45.1530342  15.9698839
  0.00270600012  77.5855713 -24.5366268  40.5810623  12.9171782
  0.00272800005  74.1161957 -11.903573  42.5394936  10.0858517
  0.00274999999  66.7070236 -12.5573502  40.1466217  11.6122046
  0.00277199992  64.3255005 -16.2612553  34.4850998  15.7485046
  0.00279400009  58.4452095 -8.42090702  26.4238091  10.0858517
  0.00281600002  52.3297005 -7.7671299  21.6311684  3.77071214
  0.00283799996  46.2435951 -8.42090702  17.9280777  5.51261854
  0.00285999989  39.4812584 -4.50073195  18.1487465  4.20764494
  0.00288200006  33.395153 -4.93575478  11.1770058 -0.1500341
  0.00290399999  33.395153  2.03454947  8.34969234  7.90701199
  0.00292599993  24.4571037 -0.580557585  3.77082419  0.723832071
  0.0029480001  23.1340389 -5.37077713  5.29481506  5.51261854
  0.00297000003  23.3692493  4.430902  7.69458342  2.24435925
  0.00299199997  19.2236423  1.38077271  3.12261105 -0.1500341
  0.0030139999  19.0178318  6.60850096  7.03947401  3.77071214
  0.00303600007  17.4889545  5.30094719  3.12261105 -0.365587741
  0.003058  21.6345634 -1.88562524  0.509070218  3.11822534
  0.00307999994  21.840374  3.77712536  0.722842693 -1.23945391
  0.0031020001  20.1056862 -1.23184848 -0.801148057 -0.365587741
  0.00312400004  21.6345634  2.03454947  4.20526505  1.16076517
  0.00314599997  18.7826195  3.77712536  1.81239271  1.37631881
  0.00316799991  19.6646633 -2.10437942  4.20526505  1.59187245
  0.00319000008  19.2236423  0.0732191801  2.46750188  3.55515838
  0.00321200001  19.4588547  7.2622776  4.42593336  1.59187245
  0.00323399995  14.8722239  6.82476902  5.7361517 -0.365587741
  0.00325600011  13.137537  0.0732191801  4.64660168  6.16510534
  0.00327800005  12.9023247  3.77712536  5.29481506  0.502452612
  0.00329999998  19.0178318  4.21214819  7.69458342  2.24435925
  0.00332199992  19.6646633  9.22112179  8.34969234  4.64457846
  0.00334400008  19.2236423  3.77712536  8.56346512 -0.802520812
  0.00336600002  20.7525196  4.64717054  8.34969234 -0.802520812
  0.00338799995  21.840374  9.65614414  10.3081245  6.38648462
  0.00340999989  18.135788  5.51970148  5.29481506  6.38648462
  0.00343200006  23.1340389  8.78609943  8.56346512 -0.802520812
  0.00345399999  17.0479336  6.38974667  8.99790573  3.99209142
  0.00347599993  14.8722239  4.21214819  9.21857452  0.939385712
  0.00349800009  19.0178318  2.25081778  4.86037445  4.20764494
  0.00352000003  18.135788  3.33961701  2.68127441 -0.802520812
  0.00354199996  10.9618282 -0.796825886  1.59172428  0.286898971
  0.0035639999  10.7266159  2.25081778 -0.580479741 -0.365587741
  0.00358600006  8.99192905  0.291973382  1.37795186  3.3337791
  0.003608  9.87397289 -1.23184848 -0.366707265  1.81325185
  0.00362999993  13.99018  5.30094719 -1.02181637  4.20764494
  0.0036520001  4.84632111 -0.580557585 -6.02822971 -1.45500755
  0.00367400004  5.72836542  0.291973382 -5.37312031  1.16076517
  0.00369599997  7.2572422 -0.143049166 -2.75957966  3.99209142
  0.00371799991  0.494903058  1.59952688 -0.801148057 -1.23945391
  0.00374000007  4.84632111 -5.37077713 -1.67002976 -2.98136044
  0.00376200001  5.72836542  1.59952688 -1.89069808  1.59187245
  0.00378399994 -1.47499573 -6.24082232 -2.32513881  0.939385712
  0.00380600011  2.6706121 -2.10437942 -2.32513881 -1.45500755
  0.00382800004  2.90582395  1.38077271 -7.11777973 -2.10749435
  0.00384999998 -0.592951477 -1.23184848 -4.28357029  2.46573853
  0.00387199991 -1.88661635 -0.796825886 -3.41468883  0.723832071
  0.00389400008  0.0538809299  3.55837131 -0.801148057  0.502452612
  0.00391600002  2.02377963 -2.75815606 -4.71801138  5.29706478
  0.00393800018 -3.65070486  2.03454947  0.509070218  2.02880549
  0.00395999989  1.37694728 -0.796825886 -1.23558891  3.3337791
  0.00398200005  2.22958994 -0.796825886  1.59172428 -2.32887363
  0.00400400022 -2.12182808 -1.01558006 -1.02181637  0.939385712
  0.00402599992  0.935925186  2.46957207  3.99149251 -1.01807451
  0.00404800009  3.31744456 -0.143049166 -4.71801138  0.286898971
  0.00406999979  0.28909272 -2.9744246 -1.45625722 -4.07078028
  0.00409199996 -0.798761845 -3.19317865 -1.23558891  5.51261854
  0.00411400013  1.81796944  3.12334871 -0.366707265  4.86013174
  0.00413599983  4.84632111 -0.796825886 -0.580479741 -1.01807451
  0.004158 -1.03397357  1.59952688  0.0677335411  1.81325185
  0.00418000016  0.935925186 -1.88562524 -1.02181637 -0.1500341
  0.00420199987 -0.151929393 -2.32064772 -2.54580712 -0.802520812
  0.00422400003 -2.56285024  5.0821929 -3.19402051 -2.10749435
  0.0042460002 -2.76866055 -1.45060265  0.509070218  3.11822534
  0.0042679999  2.02377963  0.0732191801 -3.41468883 -5.37575388
  0.00429000007  2.02377963  3.55837131 -1.02181637  2.46573853
  0.00431199977 -2.32763839  6.38974667  1.15728354 -1.67056119
  0.00433399994  0.730114818  3.77712536 -0.580479741  3.3337791
  0.00435600011  1.81796944  0.0732191801  4.64660168 -3.41246772
  0.00437799981  0.730114818  1.16201842  1.81239271 -4.28633404
  0.00439999998 -1.23978388 -0.580557585  2.46750188  3.3337791
  0.00442200014 -5.15017986  1.16201842  1.37795186 -1.67056119
  0.00444399985  0.494903058  1.81579518  0.943511069  5.0756855
  0.00446600001  1.81796944 -1.23184848  0.943511069  0.286898971
  0.00448800018 -1.88661635 -2.10437942 -2.75957966 -1.01807451
  0.00450999988 -3.2096827 -7.7671299  0.0677335411 -2.54442739
  0.00453200005 -2.32763839 -3.62820125 -0.14603892 -2.10749435
  0.00455400022  1.37694728 -2.10437942  2.68127441 -5.37575388
  0.00457599992  0.494903058  0.510727584  2.03306103 -0.365587741
  0.00459800009  0.730114818 -2.32064772 -2.32513881 -3.63384724
  0.00461999979 -1.23978388  1.81579518 -0.366707265  3.55515838
  0.00464199996  1.81796944  2.90459442  3.12261105 -0.802520812
  0.00466400012 -1.03397357  1.81579518  7.90835571  1.59187245
  0.00468599983  1.14173543 -0.580557585 -0.366707265 -1.67056119
  0.00470799999  1.14173543 -2.53940201 -2.75957966 -0.1500341
  0.00473000016 -1.68080604  0.291973382 -1.67002976 -0.802520812
  0.00475199986 -1.03397357  0.726995945 -2.10447049  2.24435925
  0.00477400003  0.494903058  5.73597002  2.24683356 -1.67056119
  0.0047960002  0.0538809299 -2.32064772 -1.45625722 -0.581141412
  0.0048179999 -1.23978388 -0.580557585 -2.54580712 -5.16020012
  0.00484000007 -1.47499573 -5.58953142  1.37795186  2.90267158
  0.00486199977 -1.03397357  2.68832612  1.37795186  0.0713453293
  0.00488399994  0.494903058  5.51970148  1.15728354 -0.581141412
  0.0049060001  0.730114818  0.726995945  5.51548338 -0.581141412
  0.00492799981  0.494903058  1.16201842  1.81239271  1.37631881
  0.00494999997  6.61040974 -0.361803353  8.12902451 -2.10749435
  0.00497200014  2.46480179 -3.84695554  7.69458342 -4.5018878
  0.00499399984  5.72836542 -4.28197813  10.963233 -3.63384724
  0.00501600001  8.34509659 -1.01558006  12.4872236 -0.1500341
  0.00503800018  14.6664133 -2.9744246  15.7489777 -7.9915266
  0.00505999988  12.0496826 -7.33210754  15.9696465 -2.10749435
  0.00508200005  18.7826195  0.291973382  15.7489777 -3.63384724
  0.00510400021  22.0461845 -6.6783309  15.314537  5.29706478
  0.00512599992  22.0461845 -3.84695554  11.1770058  0.502452612
  0.00514800008  19.8704739 -4.71700048  12.9216652  0.0713453293
  0.00516999979  24.8981266 -3.19317865  10.0874557 -6.02824068
  0.00519199995  25.1039371  2.03454947  14.8800964 -5.16020012
  0.00521400012  28.3675003 -8.85592937  10.963233 -8.6440134
  0.00523599982  25.7507687  1.81579518  11.3976746 -4.93882084
  0.00525799999  26.4270039 -0.796825886  12.7009964  5.51261854
  0.00528000016  25.5449581 -1.66935682  14.8800964 -1.23945391
  0.00530199986  25.5449581  2.68832612  10.963233  4.86013174
  0.00532400003  23.5750599 -4.28197813  11.6114464 -7.9915266
  0.00534600019  22.9282284 -0.361803353  7.03947401 -3.63384724
  0.0053679999  23.1340389 -0.796825886  11.8321152 -2.10749435
  0.00539000006  24.0160828  0.0732191801  12.045887 -4.07078028
  0.00541200023  22.4872055 -2.10437942  15.314537 -1.01807451
  0.00543399993  24.0160828  1.81579518  12.2665558 -5.59130716
  0.0054560001  21.1935406  4.64717054  10.7425652 -1.23945391
  0.0054779998  21.840374 -0.796825886  7.26014233 -4.72326708
  0.00549999997  18.7826195  2.25081778  8.56346512 -4.28633404
  0.00552200014  17.4889545  2.46957207  8.78413296 -2.10749435
  0.00554399984  20.7525196  1.81579518  5.7361517 -2.54442739
  0.00556600001  19.2236423  3.55837131  9.21857452  0.0713453293
  0.00558800017  14.6664133  6.38974667  6.81880569  1.16076517
  0.00560999988  16.842123  0.945750117  7.69458342 -1.89194059
  0.00563200004  17.0479336 -3.19317865  3.99149251 -4.07078028
