Total Power only
 Time (s)               Data...
  0.000782750023  0.564210653
  0.00156550005  1.09755933
  0.00234825001  2.2705214
  0.00313100009  4.6366868
  0.00391374994  7.80473042
  0.00469650002  11.0402441
  0.0054792501  14.9929609
  0.00626200018  18.3141613
  0.0070447498  19.858881
  0.00782749988  21.2214336
  0.00861025043  19.8167133
  0.00939300004  16.2529583
  0.0101757497  12.3731089
  0.0109585002  8.66665649
  0.0117412498  5.44936037
  0.0125240004  3.14762855
  0.01330675  1.29760718
  0.0140894996  0.585801005
  0.0148722501  0.301078498
  0.0156549998  0.401271135
  0.0164377503 -0.0173788592
  0.0172205009 -0.149619639
  0.0180032495 -0.0538125411
  0.0187860001  0.455584317
  0.0195687506 -0.066294454
  0.0203514993 -0.264318258
  0.0211342499  0.181994349
  0.0219170004 -0.166487083
  0.0226997491  0.849607825
  0.0234824996 -0.0231137909
  0.0242652502 -0.116896786
  0.0250480007  0.315584511
  0.0258307494  0.251488209
  0.0266135  0.167825699
  0.0273962505  0.15736787
  0.0281789992  0.0345728733
  0.0289617497 -0.137137726
  0.0297445003  0.155343786
  0.0305272508 -0.359788001
  0.0313099995 -0.484944463
  0.0320927501 -0.054824587
  0.0328755006 -0.0237884894
  0.0336582512 -0.189764157
  0.0344410017  0.116886005
  0.0352237485 -0.352366328
  0.0360064991 -0.111499205
  0.0367892496 -0.272414625
  0.0375720002 -0.230246022
  0.0383547507  0.312211037
  0.0391375013 -0.178968981
  0.0399202518 -0.244077325
  0.0407029986  0.227536455
  0.0414857492 -0.333137453
  0.0422684997 -0.0467282161
  0.0430512503 -0.0420053303
  0.0438340008 -0.347306103
  0.0446167514 -0.346631408
  0.0453994982 -0.267354399
  0.0461822487 -0.0251378845
  0.0469649993 -0.292655557
  0.0477477498 -0.392510861
  0.0485305004  0.0652716234
  0.0493132509 -0.488317937
  0.0500960015  0.185367838
  0.0508787483  0.32536763
  0.0516614988  0.190090716
  0.0524442494 -0.296703756
  0.0532269999  0.0878740028
  0.0540097505  0.0278258938
  0.054792501  0.464018047
  0.0555752516 -0.0372824445
  0.0563579984 -0.200896665
  0.0571407489  0.125319734
  0.0579234995  0.047729481
  0.05870625 -0.148270234
  0.0594890006 -0.467402309
  0.0602717511  0.21977742
  0.0610545017  0.180307597
  0.0618372485  0.256885797
  0.0626199991  0.651246667
  0.0634027496  0.370572388
  0.0641855001  0.223150909
  0.0649682507  0.41476509
  0.0657510012  0.136114895
  0.0665337518 -0.188077405
  0.0673165023 -0.108800411
  0.0680992529  0.207970217
  0.0688820034  0.119922146
  0.0696647465  0.148596808
  0.0704474971 -0.0180535577
  0.0712302476 -0.0909209251
  0.0720129982  0.220789477
  0.0727957487 -0.070679985
  0.0735784993  0.121271543
  0.0743612498 -0.392510861
  0.0751440004  0.0392957591
  0.0759267509 -0.886726975
  0.0767095014 -0.164800331
  0.077492252  0.0180427767
  0.0782750025  0.0703318566
  0.0790577531  0.0335608274
  0.0798405036  0.142861873
  0.0806232467  0.245415941
  0.0814059973 -0.123981118
  0.0821887478 -0.378342181
  0.0829714984 -0.209667742
  0.0837542489 -0.181667775
  0.0845369995  0.0585246459
  0.08531975  0.327054381
  0.0861025006  0.252162933
  0.0868852511  0.186042532
  0.0876680017  0.236982211
  0.0884507522  0.0247897543
  0.0892335027 -0.00725839194
  0.0900162533  0.372933835
  0.0907989964  0.00927170459
  0.0915817469 -0.0770896152
  0.0923644975  0.237994269
  0.093147248  0.365512162
  0.0939299986  0.0315367319
  0.0947127491 -0.416125268
  0.0954954997 -0.140511215
  0.0962782502  0.290283352
  0.0970610008 -0.210679784
  0.0978437513  0.0460427366
  0.0986265019  0.411391616
  0.0994092524 -0.0237884894
  0.100192003  0.179632902
  0.100974753  0.0703318566
  0.101757497 -0.0501017049
  0.102540247  0.631343067
  0.103322998  0.272066504
  0.104105748 -0.274101377
  0.104888499  0.0902354419
  0.105671249  0.247102693
  0.106454  0.625608146
  0.10723675 -0.151643723
  0.108019501 -0.557811797
  0.108802252  0.148596808
  0.109585002  0.233608723
  0.110367753  0.444789141
  0.111150503  0.219440073
  0.111933254 -0.163113594
  0.112715997  0.427247018
  0.113498747  0.236644864
  0.114281498  0.367198884
  0.115064248  0.247102693
  0.115846999  0.201897934
  0.11662975 -0.0362703986
  0.1174125  0.269705057
  0.118195251  0.140163079
  0.118978001  0.276452035
  0.119760752 -0.178968981
  0.120543502  0.444114447
  0.121326253  0.640114188
  0.122109003  0.144548625
  0.122891746  0.0160186831
  0.123674497 -0.0932823643
  0.124457248 -0.404655397
  0.125239998  0.0237777084
  0.126022756  0.412066311
  0.126805499  0.317945957
  0.127588257  0.0608860888
  0.128371 -0.109137766
  0.129153743  0.722764671
  0.129936501  0.681945443
  0.130719244 -0.163450941
  0.131502002  0.458620459
  0.132284746  0.0534644127
  0.133067504  0.53115046
  0.133850247  0.120259494
  0.134633005  0.176259413
  0.135415748  0.208644912
  0.136198506  0.161078721
  0.136981249 -0.339209706
  0.137764007 -0.438390285
  0.13854675 -0.24475202
  0.139329493  0.204596728
  0.140112251 -0.192800298
  0.140894994 -0.0248005353
  0.141677752  0.0544764586
  0.142460495  0.442765057
  0.143243253 -0.0730414316
  0.144025996  0.0544764586
  0.144808754 -0.0882221311
  0.145591497  0.0811270252
  0.146374255 -0.25622189
  0.147156999  0.195488304
  0.147939757  0.0821390674
  0.1487225 -0.0241258368
  0.149505243  0.022090964
  0.150288001 -0.0322222114
  0.151070744 -0.00253550732
  0.151853502  0.216066584
  0.152636245  0.475487888
  0.153419003  0.346283257
  0.154201746  0.380355507
  0.154984504  0.363488048
  0.155767247 -0.280848354
  0.156550005 -0.0696679428
  0.157332748  0.332789302
  0.158115506  0.242042452
  0.158898249 -0.17323406
  0.159681007  0.264982164
  0.16046375  0.530138433
  0.161246493  0.50551194
  0.162029251 -0.0126559744
  0.162811995 -0.323354334
  0.163594753  0.0753920898
  0.164377496  0.0315367319
  0.165160254 -0.0821498483
  0.165942997 -0.0558366366
  0.166725755 -0.0399812348
  0.167508498  0.438716859
  0.168291256 -0.031884864
  0.169073999  0.184693143
  0.169856757  0.267343611
  0.1706395  0.393849462
  0.171422243  0.676210523
  0.172205001  0.131392017
  0.172987744  0.373945862
  0.173770502 -0.16682443
  0.174553245  0.19278951
  0.175336003  0.186042532
  0.176118746  0.165126905
  0.176901504  0.621559978
  0.177684247  0.0858499035
  0.178467005  0.132066712
  0.179249749  0.144548625
  0.180032507  0.357753128
  0.18081525  0.241367757
  0.181597993  0.165126905
  0.182380751  0.426909655
  0.183163494  0.548017919
  0.183946252 -0.247450814
  0.184728995  0.136114895
  0.185511753 -0.165475026
  0.186294496  0.176259413
  0.187077254  0.282186985
  0.187859997  0.162090763
  0.188642755  0.0534644127
  0.189425498  0.597945571
  0.190208256  0.351343513
  0.190990999  0.383054286
  0.191773757 -0.248125508
  0.1925565  0.227873802
  0.193339244  0.277801424
  0.194122002  0.266331583
  0.194904745  0.0946209803
  0.195687503  0.42050004
  0.196470246  0.236307517
  0.197253004  0.579053998
  0.198035747  0.107102886
  0.198818505  0.352018207
  0.199601248  0.385415733
  0.200384006  0.935631812
