Total Power only
 Time (s)               Data...
  0.00235243747  0.999875247
  0.00470487494  0.945796549
  0.00705731241  0.834740639
  0.00940974988  0.716065705
  0.0117621878  0.594260335
  0.0141146248  0.447146446
  0.0164670628  0.31132865
  0.0188194998  0.196347281
  0.0211719368  0.13284418
  0.0235243756  0.0998338312
  0.0258768126  0.0699870363
  0.0282292496  0.0407696478
  0.0305816866  0.0125460457
  0.0329341255 -0.0124311801
  0.0352865607 -0.00113511342
  0.0376389995 -0.00514339516
  0.0399914384 -0.0127458796
  0.0423438735 -0.0220874939
  0.0446963124 -0.0182945337
  0.0470487513 -0.00590529991
  0.0494011864 -0.0201330427
  0.0517536253 -0.0116692754
  0.0541060641  0.0156930443
  0.0564584993  0.0250346586
  0.0588109381  0.0260118842
  0.0611633733  0.00484418264
  0.0635158122 -0.0270730015
  0.065868251 -0.0395616144
  0.0682206899 -0.0232800413
  0.0705731213 -0.00742910942
  0.0729255602 -0.00666720467
  0.075277999 -0.0164394621
  0.0776304379 -0.0213255901
  0.0799828768 -0.0156775564
  0.0823353156  0.00484418264
  0.0846877471  0.00570546603
  0.0870401859  0.00711333379
  0.0893926248 -0.0212096479
  0.0917450637 -0.0536734164
  0.0940975025 -0.0496651344
  0.0964499339 -0.043586459
  0.0988023728 -0.0174166877
  0.101154812  0.00732865464
  0.103507251  0.00484418264
  0.105859689  0.00689801294
  0.108212128  0.00701395469
  0.11056456 -0.00926761888
  0.112916999 -0.0102448445
  0.115269437  0.000935279939
  0.117621876 -0.0180626493
  0.119974315 -0.0305512622
  0.122326747 -0.00764443027
  0.124679185  0.0295895245
  0.127031624  0.0131920082
  0.129384056 -0.00776037248
  0.131736502 -0.0326216556
  0.134088933 -0.0183939133
  0.13644138  0.00158124266
  0.138793811  0.00809055939
  0.141146243  0.00982968975
  0.143498689  0.0330677852
  0.14585112  0.0352375582
  0.148203567  0.0195025671
  0.150555998  0.00603672909
  0.152908444  0.0166702699
  0.155260876  0.00973031111
  0.157613307 -0.0150315939
  0.159965754 -0.0211102683
  0.162318185 -0.00895291846
  0.164670631  0.0131920082
  0.167023063  0.0295895245
  0.169375494  0.0419621952
  0.17172794  0.058045011
  0.174080372  0.0481568128
  0.176432818  0.0475108474
  0.17878525  0.0385998748
  0.181137681 -0.000919792568
  0.183490127 -0.0239260029
  0.185842559 -0.0382696874
  0.188195005 -0.0340295248
  0.190547436  0.0171009116
  0.192899868  0.0456557758
  0.195252314  0.03545288
  0.197604746  0.0142851761
  0.199957192 -0.0160088204
  0.202309623 -0.00926761888
  0.20466207  0.00592078734
  0.207014501 -0.00297362288
  0.209366933  0.017001532
  0.211719379  0.0358835198
  0.21407181  0.0440325886
  0.216424257  0.0341443904
  0.218776688  0.0270884894
  0.221129119  0.012115404
  0.223481566  0.0186247211
  0.225833997  0.0295895245
  0.228186443  0.0105915945
  0.230538875 -0.0302365627
  0.232891306 -0.0224187579
  0.235243753  0.00527482433
  0.237596184 -0.00406679045
  0.23994863 -0.000919792568
  0.242301062  0.0236267913
  0.244653493  0.0365460478
  0.247005939  0.0342603326
  0.249358371  0.0315439738
  0.251710802  0.0227489453
  0.254063249  0.0277510155
  0.256415695  0.0287282411
  0.258768111 -0.0052593369
  0.261120558 -0.036199294
  0.263473004 -0.0213255901
  0.26582545  0.00560608739
  0.268177867  0.0104922159
  0.270530313  0.0189559832
  0.27288276  0.00439697783
  0.275235176  0.0256806221
  0.277587622  0.0366454236
  0.279940069  0.00592078734
  0.282292485 -0.0174166877
  0.284644932  0.0224342439
  0.286997378  0.0679166466
  0.289349824  0.0567365214
  0.291702241  0.013953913
  0.294054687 -0.02154091
  0.296407133  0.0158089865
  0.29875955  0.0388151966
  0.301111996  0.0204797927
  0.303464442  0.00484418264
  0.305816889 -0.00146637636
  0.308169305  0.00439697783
  0.310521752  0.0317592956
  0.312874198  0.0315439738
  0.315226614  0.0265584681
  0.317579061  0.0166702699
  0.319931507 -0.00189701817
  0.322283924 -0.018824555
  0.32463637 -0.0416320078
  0.326988816 -0.0456402898
  0.329341263 -0.0223028157
  0.331693679  0.00396633567
  0.334046125  0.0149311395
  0.336398572  0.0649849698
  0.338750988  0.0741112605
  0.341103435  0.0352375582
  0.343455881  0.0166702699
  0.345808327 -0.00535871601
  0.348160744 -0.0216568522
  0.35051319 -0.0360999182
  0.352865636 -0.00504401606
  0.355218053 -0.00981420279
  0.357570499 -0.0402241386
  0.359922945 -0.040870104
  0.362275362 -0.0486879088
  0.364627808 -0.0673545748
  0.366980255 -0.041416686
  0.369332701  0.00592078734
  0.371685117 -0.0263276603
  0.374037564 -0.0445636846
  0.37639001 -0.0248038508
  0.378742427 -0.0158928782
  0.381094873  0.000488074962
  0.383447319  0.0141692348
  0.385799736  0.0198172666
  0.388152182  0.0179787576
  0.390504628  0.00212782645
  0.392857075  0.00689801294
  0.395209491  0.0193866249
  0.397561938  0.0171009116
  0.399914384  0.00267441035
  0.4022668  0.0291588828
  0.404619247  0.0275356937
  0.406971693 -0.00580592081
  0.409324139  0.00625204993
  0.411676556  0.0392624028
  0.414029002  0.043055363
  0.416381449  0.0184093993
  0.418733865  0.00320443115
  0.421086311 -0.002874244
  0.423438758 -0.00514339516
  0.425791174 -0.0231640991
  0.42814362  0.00896840636
  0.430496067  0.0530429408
  0.432848513  0.0315439738
  0.43520093  0.011784141
  0.437553376 -0.00535871601
  0.439905822 -0.028928075
  0.442258239 -0.0217562318
  0.444610685  0.00951499026
  0.446963131  0.018840041
  0.449315548  0.012115404
  0.451667994  0.0101609528
  0.454020441  0.0202479102
  0.456372887  0.012115404
  0.458725303 -0.0123152379
  0.46107775 -0.016986046
  0.463430196 -0.00439805351
  0.465782613  0.0176474955
  0.468135059  0.00472824043
  0.470487505 -0.0373918414
  0.472839952 -0.0270730015
  0.475192368  0.00689801294
  0.477544814 -0.00926761888
  0.479897261 -0.045756232
  0.482249677 -0.0532427728
  0.484602123 -0.0319591314
  0.48695457 -0.00244360208
  0.489306986 -0.00645188382
  0.491659433  0.00885246415
  0.494011879  0.0196019467
  0.496364325  0.0149311395
  0.498716742  0.0105915945
  0.501069188  0.0243886951
  0.503421605  0.0158089865
  0.505774081  0.0153617812
  0.508126497  0.0226495657
  0.510478914  0.0513038114
  0.51283139  0.0516350716
  0.515183806 -0.0174166877
  0.517536223 -0.0325057134
  0.519888699 -0.0269736219
  0.522241116 -0.00547465775
  0.524593592 -0.00776037248
  0.526946008 -0.010476728
  0.529298425 -0.0182945337
  0.531650901 -0.00852227677
  0.534003317  0.00711333379
  0.536355734 -0.00352020655
  0.53870821 -0.0367458798
  0.541060627 -0.0331682414
  0.543413043 -0.026427038
  0.545765519 -0.0246879086
  0.548117936 -0.0287127532
  0.550470352 -0.03164443
  0.552822828 -0.0186092332
  0.555175245 -0.00547465775
  0.557527661  0.0190553628
  0.559880137  0.0253659226
  0.562232554  0.00613610819
  0.56458497 -4.19457574E-05
  0.566937447  0.0131920082
  0.569289863  0.0125460457
  0.571642339  0.0308980122
  0.573994756  0.0179787576
  0.576347172 -0.0368452594
  0.578699648 -0.0591061264
  0.581052065 -0.0385843888
  0.583404481 -0.0523814894
  0.585756958 -0.0684477463
  0.588109374 -0.085590601
  0.590461791 -0.0440171026
  0.592814267 -0.0186092332
  0.595166683  0.00646737078
  0.5975191  0.0420781374
  0.599871576  0.0366454236
  0.602223992  0.0349062942
