Total Power only
 Time (s)               Data...
  0.00178099214  0.982765734
  0.00356198428  0.99528861
  0.00534297666  0.999966741
  0.00712396856  0.941266894
  0.00890496094  0.869407654
  0.0106859533  0.811105549
  0.0124669457  0.741028488
  0.0142479371  0.663218141
  0.0160289295  0.593347967
  0.0178099219  0.525975943
  0.0195909142  0.499482214
  0.0213719066  0.484890789
  0.023152899  0.470283449
  0.0249338914  0.444203466
  0.0267148819  0.428880066
  0.0284958743  0.420017004
  0.0302768666  0.380379856
  0.032057859  0.376735985
  0.0338388532  0.347012103
  0.0356198438  0.303412855
  0.0374008343  0.270458817
  0.0391818285  0.230312482
  0.040962819  0.199331537
  0.0427438132  0.175240561
  0.0445248038  0.131752685
  0.046305798  0.118306927
  0.0480867885  0.115585946
  0.0498677827  0.105990931
  0.0516487733  0.0807542726
  0.0534297638  0.0529080331
  0.055210758  0.0180763584
  0.0569917485  0.0389371738
  0.0587727427  0.061150521
  0.0605537333  0.0575066395
  0.0623347275  0.0543719493
  0.064115718  0.0807542726
  0.0658967122  0.0730368868
  0.0676777065  0.0528125577
  0.0694586933  0.0200653747
  0.0712396875  0.0154667674
  0.0730206817  0.0357070081
  0.0748016685  0.0289284363
  0.0765826628  0.0143210934
  0.078363657  0.024536686
  0.0801446512  0.0150530515
  0.081925638  0.0265257042
  0.0837066323  0.0216247644
  0.0854876265  0.0229772963
  0.0872686207  0.0181877427
  0.0890496075  0.0355001502
  0.0908306018  0.0424855798
  0.092611596  0.0203677062
  0.0943925828  0.0311083999
  0.096173577  0.0398759879
  0.0979545712  0.0225635804
  0.0997355655  0.0159918685
  0.101516552  0.0092132967
  0.103297547  0.034036234
  0.105078541  0.0453020297
  0.106859528  0.0731482729
  0.108640522  0.0596866012
  0.110421516  0.0416422375
  0.11220251  0.0108840708
  0.113983497 -0.0214493964
  0.115764491 -0.0124749495
  0.117545485 -0.0121726189
  0.11932648  0.00389864156
  0.121107467  0.0274645202
  0.122888461  0.0239161141
  0.124669455  0.0197471324
  0.126450449  0.0443632118
  0.128231436  0.0498847254
  0.130012423  0.0765852928
  0.131793424  0.0563609675
  0.133574411  0.0107726855
  0.135355413 -0.00851282757
  0.1371364 -0.0151959257
  0.138917387 -0.0208288226
  0.140698388 -0.0059032361
  0.142479375 -0.00069996668
  0.144260362  0.0152599094
  0.146041363  0.00806762185
  0.14782235  0.0334156603
  0.149603337  0.0710637793
  0.151384339  0.0642852113
  0.153165326  0.0427879095
  0.154946327  0.033511132
  0.156727314  0.02693942
  0.158508301  0.0238206405
  0.160289302  0.0317448862
  0.162070289  0.0277827624
  0.163851276  0.026000604
  0.165632278  0.0115046445
  0.167413265  0.0184900742
  0.169194251  0.0141142355
  0.170975253  0.0163101107
  0.17275624 -0.00736715319
  0.174537241 -0.0182192326
  0.176318228  0.00536255864
  0.178099215 -0.000588581664
  0.179880217 -0.00111368229
  0.181661204  0.0212110486
  0.18344219  0.00358039886
  0.185223192  0.00222786702
  0.187004179  0.0186014585
  0.188785166  0.0282919519
  0.190566167  0.0274645202
  0.192347154  0.0119183604
  0.194128156  0.00117766578
  0.195909142  0.00660370523
  0.197690129  0.0106772128
  0.199471131  0.0155781517
  0.201252118  0.0277827624
  0.203033105  0.0268439464
  0.204814106  0.0362321101
  0.206595093  0.0367412977
  0.20837608  0.0213065222
  0.210157081  0.0328905582
  0.211938068  0.0453975014
  0.213719055  0.0275759045
  0.215500057  0.0227704383
  0.217281044  0.0342430919
  0.219062045  0.0277827624
  0.220843032  0.0225635804
  0.222624019  0.0483253337
  0.22440502  0.032158602
  0.226186007  0.00483745802
  0.227966994  0.0148461936
  0.229747996  0.00128905079
  0.231528983 -0.0126818074
  0.233309969 -0.00569637865
  0.235090971 -0.00267307204
  0.236871958  0.0218316223
  0.238652959  0.0131754186
  0.240433946  0.0164055824
  0.242214933  0.0387303159
  0.243995935  0.0397646055
  0.245776922  0.0336225182
  0.247557908  0.0406079479
  0.24933891  0.0556290075
  0.251119912  0.0319517441
  0.252900898  0.00681056315
  0.254681885 -0.0126818074
  0.256462872  0.0296603963
  0.258243859  0.0618824773
  0.260024846  0.0867054164
  0.261805862  0.0733551309
  0.263586849  0.0251731724
  0.265367836  0.0198585168
  0.267148823  0.0130799459
  0.268929809  0.0381097421
  0.270710826  0.0381097421
  0.272491813  0.0381097421
  0.274272799  0.0228818245
  0.276053786  0.0104703549
  0.277834773  0.0092132967
  0.27961576  0.0243298281
  0.281396776  0.0409102775
  0.283177763  0.0371709242
  0.28495875  0.0303923544
  0.286739737  0.0182832163
  0.288520724  0.0207973346
  0.29030174  0.0200653747
  0.292082727  0.0344499499
  0.293863714  0.0286101941
  0.295644701  0.0467659459
  0.297425687  0.0387303159
  0.299206674  0.0181877427
  0.300987691 -0.000270338904
  0.302768677  0.00973839685
  0.304549664  0.0487390496
  0.306330651  0.0468614176
  0.308111638  0.0166124403
  0.309892654 -0.0249978043
  0.311673641 -0.0217676386
  0.313454628 -0.0190466642
  0.315235615  0.00795623753
  0.317016602  0.035388764
  0.318797588  0.0174557846
  0.320578605  0.0132868038
  0.322359592  0.0221498664
  0.324140579  0.00577627402
  0.325921565  0.00232333993
  0.327702552 -0.00798772648
  0.329483569  0.0100407274
  0.331264555  0.0163101107
  0.333045542 -0.0044552316
  0.334826529  0.00326215615
  0.336607516  0.0224521961
  0.338388503  0.0181877427
  0.340169519  0.0178695004
  0.341950506  0.024536686
  0.343731493  0.0104703549
  0.34551248  0.0251731724
  0.347293466  0.027878236
  0.349074483  0.0294535384
  0.35085547  0.0235023983
  0.352636456  0.00681056315
  0.354417443  0.00566488924
  0.35619843  0.0103589706
  0.357979417  0.0167238265
  0.359760433  0.0208928064
  0.36154142  0.00848133769
  0.363322407 -0.0107087027
  0.365103394 -0.0127931926
  0.366884381 -0.00821049698
  0.368665397 -0.0194603801
  0.370446384 -0.0327151902
  0.372227371 -0.0280211102
  0.374008358 -0.0355316401
  0.375789344 -0.0325083323
  0.377570331  0.0104703549
  0.379351348  0.0368526839
  0.381132334  0.0201608483
  0.382913321 -0.00214797142
  0.384694308  0.0177581143
  0.386475295  0.0181877427
  0.388256311  0.0253800303
  0.390037298  0.00754252169
  0.391818285  0.0129685616
  0.393599272  0.0114091719
  0.395380259  0.00326215615
  0.397161245  0.00754252169
  0.398942262  0.0217361506
  0.400723249  0.0137959924
  0.402504236  0.0294535384
  0.404285222  0.0150530515
  0.406066209 -0.00267307204
  0.407847226  0.0145279504
  0.409628212  0.00254610972
  0.411409199  0.0239161141
  0.413190186  0.026000604
  0.414971173  0.025268646
  0.41675216  0.0171375424
  0.418533176  0.0298672542
  0.420314163  0.0337179899
  0.42209515  0.0249663144
  0.423876137  0.0348636657
  0.425657123  0.0386189297
  0.42743811  0.0205745641
  0.429219127  0.00348492595
  0.431000113  0.0069219484
  0.4327811  0.00211648201
  0.434562087 -0.0190466642
  0.436343074 -0.00633286405
  0.43812409 -0.00798772648
  0.439905077 -0.0172804166
  0.441686064 -0.039286904
  0.443467051 -0.0428193994
  0.445248038 -0.039493762
  0.447029024 -0.0360408276
  0.448810041  0.00264158263
  0.450591028  0.0238206405
  0.452372015  0.0199539904
  0.454153001  0.0325723179
  0.455933988  0.029755868
