Total Power only
 Time (s)               Data...
  4.30799118E-05 -0.0186710767
  8.61598237E-05 -0.0193553995
  0.000129239736 -0.00358485989
  0.000172319647  0.00652446086
  0.000215399545  0.0130410846
  0.000258479471  0.0134610105
  0.000301559368  0.0146896811
  0.000344639295  0.0225438457
  0.000387719192  0.0213151742
  0.000430799089  0.0302891415
  0.000473879016  0.0337574147
  0.000516958942  0.0426069573
  0.000560038839  0.0587196611
  0.000603118737  0.0853149518
  0.000646198634  0.104895927
  0.00068927859  0.113574393
  0.000732358487  0.125285655
  0.000775438384  0.167915881
  0.000818518281  0.208586454
  0.000861598179  0.253549606
  0.000904678134  0.288201243
  0.000947758032  0.341516227
  0.000990837929  0.415112108
  0.00103391788  0.483326674
  0.00107699772  0.541012049
  0.00112007768  0.600656986
  0.00116315763  0.657860219
  0.00120623747  0.700988114
  0.00124931743  0.733711243
  0.00129239727  0.766107678
  0.00133547722  0.80058825
  0.00137855718  0.853094518
  0.00142163702  0.927716851
  0.00146471697  0.99989742
  0.00150779681  0.968294144
  0.00155087677  0.848195374
  0.00159395672  0.75817579
  0.00163703656  0.684548795
  0.00168011652  0.608106792
  0.00172319636  0.533080101
  0.00176627631  0.466607422
  0.00180935627  0.405344933
  0.00185243611  0.337861329
  0.00189551606  0.276070058
  0.00193859602  0.227451995
  0.00198167586  0.176983163
  0.00202475581  0.13741684
  0.00206783577  0.0957353264
  0.00211091549  0.0697154924
  0.00215399545  0.0547536984
  0.0021970754  0.0390453674
  0.00224015536  0.0396674797
  0.00228323531  0.0246745795
  0.00232631527  0.016416043
  0.00236939499  0.00846856087
  0.00241247495 -0.00397367962
  0.0024555549 -0.002231766
  0.00249863486  0.00336724217
  0.00254171481 -0.00479797833
  0.00258479454 -0.0132587021
  0.00262787449 -0.0169136096
  0.00267095445 -0.0169136096
  0.0027140344 -0.0184688903
  0.00275711436 -0.00562227657
  0.00280019408  0.000412210036
  0.00284327404  0.000505526841
  0.00288635399 -0.0103036696
  0.00292943395 -0.00520235114
  0.0029725139  0.00439372705
  0.00301559363  0.0189511497
  0.00305867358  0.0356859639
  0.00310175354  0.0560756847
  0.00314483349  0.0772741511
  0.00318791345  0.0829975829
  0.00323099317  0.0723905712
  0.00327407313  0.0676003098
  0.00331715308  0.0764654055
  0.00336023304  0.0775696561
  0.00340331299  0.0805402398
  0.00344639271  0.0772741511
  0.00348947267  0.072794944
  0.00353255263  0.0616902448
  0.00357563258  0.0648319125
  0.00361871254  0.0736970082
  0.00366179226  0.0809446126
  0.00370487222  0.101645395
  0.00374795217  0.120899759
  0.00379103213  0.142735898
  0.00383411208  0.168926805
  0.00387719204  0.20093447
  0.00392027199  0.239785373
  0.00396335172  0.252414256
  0.00400643144  0.252305388
  0.00404951163  0.257935494
  0.00409259135  0.254047275
  0.00413567154  0.253938407
  0.00417875126  0.249257028
  0.00422183098  0.251309991
  0.00426491117  0.234481871
  0.00430799089  0.215009764
  0.00435107108  0.199814677
  0.0043941508  0.17188184
  0.00443723053  0.14486663
  0.00448031072  0.12346597
  0.00452339044  0.0978816152
  0.00456647063  0.076558724
  0.00460955035  0.0612703189
  0.00465263054  0.0530117825
  0.00469571026  0.0481282026
  0.00473878998  0.0394652933
  0.00478187017  0.0262143072
  0.00482494989  0.0133676929
  0.00486803008 -0.00551340729
  0.00491110981 -0.0163070504
  0.00495418953 -0.0167114232
  0.00499726972 -0.0126521429
  0.00504034944 -0.00510903448
  0.00508342963 -0.00703758141
  0.00512650935 -0.00907499809
  0.00516958907 -0.016104864
  0.00521266926 -0.017115796
  0.00525574898 -0.0126521429
