Total Power only
 Time (s)               Data...
  0.00122058589  1.00000095
  0.00244117179  0.98982209
  0.0036617578  0.964855194
  0.00488234358  0.939152062
  0.00610292982  0.91220063
  0.0073235156  0.883872807
  0.00854410138  0.865627706
  0.00976468716  0.852616131
  0.0109852739  0.852408051
  0.0122058596  0.851767898
  0.0134264454  0.872013509
  0.0146470312  0.886497498
  0.015867617  0.894259632
  0.0170882028  0.905686796
  0.0183087885  0.896244228
  0.0195293743  0.853976488
  0.0207499601  0.819566965
  0.0219705477  0.774786592
  0.0231911335  0.705231309
  0.0244117193  0.607268214
  0.0256323051  0.520828307
  0.0268528908  0.446775794
  0.0280734766  0.384774625
  0.0292940624  0.32645449
  0.0305146482  0.27935344
  0.031735234  0.235197231
  0.0329558216  0.188736364
  0.0341764055  0.16146481
  0.0353969932  0.163769454
  0.0366175771  0.145300344
  0.0378381647  0.132928923
  0.0390587486  0.119597226
  0.0402793363  0.0984233618
  0.0414999202  0.0796341673
  0.0427205078  0.0754410028
  0.0439410955  0.0716639608
  0.0451616794  0.059084475
  0.046382267  0.0537229925
  0.0476028509  0.0619172603
  0.0488234386  0.0565557778
  0.0500440225  0.0325491317
  0.0512646101  0.0171208605
  0.0524851941  0.0245629214
  0.0537057817  0.0233145747
  0.0549263656  0.0436562039
  0.0561469533  0.0588764176
  0.0573675409  0.0560436361
  0.0585881248  0.0263554174
  0.0598087125 -0.00144427828
  0.0610292964  0.00222073612
  0.062249884  0.00820639264
  0.0634704679  0.00988685805
  0.0646910518  0.0146081652
  0.0659116432 -0.00038798587
  0.0671322271 -0.0087903114
  0.068352811 -0.0101506878
  0.069573395  0.00642990135
  0.0707939863  0.00779027771
  0.0720145702 -0.00847022329
  0.0732351542 -0.00459715119
  0.0744557455 -0.00554141216
  0.0756763294 -0.00186039344
  0.0768969133  0.00652592769
  0.0781174973  0.0131357573
  0.0793380886 -0.00270862831
  0.0805586725 -0.00480520865
  0.0817792565 -0.0087903114
  0.0829998404 -0.000500016904
  0.0842204317  0.00998288486
  0.0854410157  0.0101909423
  0.0866615996  0.00998288486
  0.0878821909 -0.000500016904
  0.0891027749 -0.00270862831
  0.0903233588  0.00410925876
  0.0915439427  0.019537529
  0.0927645341  0.0210099369
  0.093985118  0.00359711726
  0.0952057019 -0.00699781533
  0.0964262858 -0.00144427828
  0.0976468772 -0.00637364248
  0.0988674611 -0.0171766337
  0.100088045 -0.0208576526
  0.101308636 -0.0274514779
  0.10252922  0.00926268566
  0.103749804  0.0233145747
  0.104970388  0.0127196424
  0.106190979 -0.00259659719
  0.107411563 -0.0114150383
  0.108632147 -0.0177047793
  0.109852731 -0.0231622905
  0.111073323 -0.0171766337
  0.112293907 -0.0215778518
  0.11351449 -0.00627761614
  0.114735082  0.00106841722
  0.115955666 -0.0178008061
  0.11717625 -0.0128714414
  0.118396834 -0.0159122832
  0.119617425 -0.0275635086
  0.120838009 -0.0322848149
  0.122058593 -0.0246186927
  0.123279177 -0.0291319415
  0.124499768 -0.0308124069
  0.125720352 -0.0139277335
  0.126940936 -0.0142478226
  0.12816152 -0.0104707768
  0.129382104 -0.0178008061
  0.130602702 -0.0042770626
  0.131823286  0.00883056596
  0.13304387  0.0154403951
  0.134264454  0.00998288486
  0.135485038  0.0059017553
  0.136705622  0.0318129286
  0.137926206  0.0309646931
  0.13914679  0.00474943593
  0.140367389 -0.014135791
  0.141587973 -0.000916132063
  0.142808557  0.00694204308
  0.14402914  0.0126076117
  0.145249724  0.0127196424
  0.146470308 -0.00354085863
  0.147690892 -0.00250057061
  0.148911491 -0.00176436687
  0.150132075 -0.00773401931
  0.151352659 -0.0152881099
  0.152573243  0.00118044822
  0.153793827  0.019537529
  0.155014411  0.0263554174
  0.156234995  0.0182731804
  0.157455593 -0.00218048203
  0.158676177 -0.00658170041
  0.159896761  0.00831842422
  0.161117345  0.0340055339
  0.162337929  0.0296043158
  0.163558513  0.0178570636
  0.164779097  0.0117753809
  0.165999681  0.00578972418
  0.16722028  0.0013885058
  0.168440863  0.00935871154
  0.169661447  0.0097748274
  0.170882031  0.0050535202
  0.172102615 -0.00794207677
  0.173323199  0.000972390699
  0.174543783  0.0151363108
  0.175764382  0.00233276724
  0.176984966 -0.0212737676
  0.17820555 -0.0116230957
  0.179426134  0.0105110314
  0.180646718  0.00201267865
  0.181867301 -0.0259950738
  0.183087885 -0.0104707768
  0.184308469 -0.000916132063
  0.185529068 -0.00333280093
  0.186749652  0.0100949155
  0.187970236 -0.00805410743
  0.18919082 -0.0315486118
  0.190411404 -0.0238984935
  0.191631988 -0.00710984645
  0.192852572 -0.0184409823
  0.19407317 -0.0392307378
  0.195293754 -0.0331170447
  0.196514338 -0.0377423242
  0.197734922 -0.0339652784
  0.198955506 -0.014135791
  0.20017609  0.00631787023
  0.201396674  0.00779027771
  0.202617273  0.0121914959
  0.203837857  0.0193294715
  0.205058441  0.0097748274
  0.206279024  0.00222073612
  0.207499608 -8.39017084E-05
  0.208720192 -0.00386094721
  0.209940776  0.00758222025
  0.21116136  0.0135518722
  0.212381959  0.000124155878
  0.213602543 -0.00847022329
  0.214823127 -0.0273554511
  0.216043711 -0.0215778518
  0.217264295 -0.00742993504
  0.218484879 -0.00658170041
  0.219705462 -0.0168565437
  0.220926061 -0.00794207677
  0.222146645  0.00212470954
  0.223367229 -0.0147599643
  0.224587813 -0.0270353612
  0.225808397 -0.0221059974
  0.227028981 -0.00416503148
  0.228249565 -0.000708074484
  0.229470164 -0.015192084
  0.230690747 -0.033757221
  0.231911331 -0.0356457457
  0.233131915 -0.0333251022
  0.234352499 -0.0419354849
  0.235573083 -0.035133604
  0.236793667 -0.0406711362
  0.238014251 -0.0488494001
  0.23923485 -0.0258830432
  0.240455434 -0.0246186927
  0.241676018 -0.00952651538
  0.242896602 -0.0110949492
  0.244117185 -0.0275635086
  0.245337769 -0.0364779755
  0.246558353 -0.0165524594
  0.247778952  0.0135518722
  0.248999536  0.0292842276
  0.25022012  0.0302284881
  0.251440704  0.00715010054
  0.252661288  0.00242879381
  0.253881872 -0.000820105488
  0.255102456 -0.0139277335
  0.25632304 -0.021481825
  0.257543623 -0.0242025778
  0.258764207 -0.0398389064
  0.259984791 -0.0242025778
  0.261205405  0.000332213473
  0.262425989  0.011359266
  0.263646573  0.00569369737
  0.264867157 -0.0104707768
  0.266087741 -0.0181208942
  0.267308325 -0.0177047793
  0.268528908 -0.0316606425
  0.269749492 -0.021481825
  0.270970076 -0.000820105488
  0.27219066 -0.00510929292
  0.273411244  0.0070540742
  0.274631828  0.00894259661
  0.275852412 -0.00176436687
  0.277072996 -0.0120392106
  0.27829358 -0.0242025778
  0.279514194 -0.0230502579
  0.280734777 -0.0185370091
  0.281955361 -0.0106788343
  0.283175945 -0.014135791
  0.284396529 -0.0208576526
  0.285617113 -0.0104707768
  0.286837697 -0.0165524594
  0.288058281 -0.0103587462
  0.289278865 -0.00448512007
  0.290499449 -0.0189691298
  0.291720033 -0.030396292
  0.292940617 -0.0272434186
  0.294161201 -0.0171766337
  0.295381784 -0.00270862831
  0.296602368  0.00631787023
  0.297822982  0.00537360879
  0.299043566  0.00841445103
  0.30026415  0.0119834384
  0.301484734  0.0123995533
  0.302705318  0.00212470954
  0.303925902 -0.0150800524
  0.305146486 -0.0244106352
  0.306367069 -0.00133224728
  0.307587653  0.00956676994
  0.308808237  0.00747018913
  0.310028821  0.000652302057
  0.311249405 -0.0190651566
  0.312469989 -0.0053333547
