Total Power only
 Time (s)               Data...
  0.00455824239  0.999855995
  0.00911648478  0.852029622
  0.0136747267  0.734601855
  0.0182329696  0.630872011
  0.0227912106  0.543842912
  0.0273494534  0.457151145
  0.0319076963  0.361063153
  0.0364659391  0.302458912
  0.0410241783  0.253250927
  0.0455824211  0.170540363
  0.050140664  0.100448087
  0.0546989068  0.0545465052
  0.0592571497 -0.0185316503
  0.0638153926 -0.0594567657
  0.0683736354 -0.0229682978
  0.0729318783  0.0243671834
  0.0774901137  0.00987638626
  0.0820483565 -0.00505301543
  0.0866065994  0.0220392104
  0.0911648422  0.0245864857
  0.0957230851 -0.00493492978
  0.100281328 -0.0207415391
  0.104839571 -0.00427702395
  0.109397814  0.0171808284
  0.113956057  0.0393978022
  0.118514299  0.064060837
  0.123072542  0.0474782363
  0.127630785  0.00137421861
  0.132189021  0.0107704634
  0.136747271  0.0619690344
  0.141305506  0.0712471902
  0.145863757  0.0579878576
  0.150421992  0.0393978022
  0.154980227 -0.00758342259
  0.159538478 -0.0269326009
  0.164096713 -0.00372033427
  0.168654963  0.0283483583
  0.173213199  0.0532306954
  0.177771449  0.0502448119
  0.182329684  0.0709266737
  0.186887935  0.0667093322
  0.19144617  0.0199474059
  0.196004421 -0.0300365686
  0.200562656 -0.0298172664
  0.205120891  0.0364119224
  0.209679142  0.0761224404
  0.214237377  0.0597422756
  0.218795627  0.0395158865
  0.223353863  0.0443742685
  0.227912113  0.0408485681
  0.232470348  0.0517967977
  0.237028599  0.0685987025
  0.241586834  0.0599784479
  0.246145085  0.0802048296
  0.250703335  0.0763417482
  0.25526157  0.0158481468
  0.259819806 -0.0133358808
  0.264378041 -0.000616368314
  0.268936276 -0.00328173046
  0.273494542  0.0279097538
  0.278052777  0.0646175221
  0.282611012  0.0701506808
  0.287169248  0.0357540175
  0.291727513 -0.0331405327
  0.296285748 -0.0501617379
  0.300843984 -0.0211970117
  0.305402219  0.0238104947
  0.309960455  0.0544452891
  0.31451872  0.0370866954
  0.319076955 -0.0072629042
  0.323635191 -0.0486097559
  0.328193426 -0.0657490492
  0.332751691 -0.0628812537
  0.337309927 -0.00505301543
  0.341868162  0.0514594093
  0.346426398  0.0806434378
  0.350984663  0.0870706737
  0.355542898  0.050464116
  0.360101134  0.00910039432
  0.364659369 -0.037442226
  0.369217604 -0.00437824009
  0.37377587  0.0788721517
  0.378334105  0.0745704621
  0.38289234  0.0401737951
  0.387450576  0.0260203835
  0.392008841 -0.00969209522
  0.396567076 -0.0485085398
  0.401125312 -0.0427560806
  0.405683547 -0.0150059499
  0.410241783 -0.00459754188
  0.414800048  0.0277916677
  0.419358283  0.059202455
  0.423916519  0.0256998651
  0.428474754 -0.0211970117
  0.433033019 -0.0326850601
  0.437591255  0.0110909818
  0.44214949  0.0537873842
  0.446707726  0.0505653322
  0.451265991  0.03133424
  0.455824226  0.00037892512
  0.460382462 -0.0216356162
  0.464940697 -0.0443080626
  0.469498932 -0.0166591499
  0.474057198  0.046364855
  0.478615433  0.061631646
  0.483173668  0.0263577718
  0.487731904 -0.0138925705
  0.492290169 -0.0378808305
  0.496848404 -0.0553575084
  0.50140667 -0.0514944196
  0.505964875 -0.0192064252
  0.51052314  0.0391785018
  0.515081346  0.0755657554
  0.519639611  0.0663888082
  0.524197876  0.0433789752
  0.528756082  0.0115464553
  0.533314347 -0.0105693024
  0.537872553  0.0119850589
  0.542430818  0.0333248265
  0.546989083  0.0565370917
  0.551547289  0.0534499958
  0.556105554  0.011310284
  0.56066376  0.0108716795
  0.565222025  0.00523730647
  0.56978029 -0.00272504077
  0.574338496  0.0118669728
  0.578896761  0.0203860104
  0.583455026  0.0461455546
  0.588013232  0.0196100194
  0.592571497 -0.0186497364
  0.597129703 -0.0657490492
  0.601687968 -0.0877635852
  0.606246233 -0.04385259
  0.610804439 -0.0101306988
  0.615362704  0.00933656655
  0.619920909  0.00834127236
  0.624479175  0.0119850589
  0.62903744  0.0237092786
  0.633595645 -0.00360224862
  0.638153911 -0.0240648072
  0.642712176 -0.00670621451
  0.647270381  0.0281290561
  0.651828647  0.055103194
  0.656386852  0.0284495745
  0.660945117 -0.0427560806
  0.665503383 -0.0925038829
  0.670061588 -0.0396521129
  0.674619853  0.0329874381
  0.679178059  0.0532306954
  0.683736324  0.0514594093
  0.68829459  0.0108716795
  0.692852795 -0.0367843211
  0.69741106 -0.0585626885
  0.701969326 -0.0212982278
  0.706527531  0.017619431
  0.711085796  0.00468061725
  0.715644002 -0.00648691272
  0.720202267 -0.0134539669
  0.724760532 -0.0228502117
  0.729318738 -0.0261734799
  0.733877003 -0.0293786619
  0.738435209 -0.0326850601
  0.742993474 -0.0257180072
  0.747551739 -0.0253974888
  0.752109945 -0.0195269436
  0.75666821 -0.041423399
  0.761226416 -0.0714002848
  0.765784681 -0.0521523245
  0.770342946  0.0183954239
  0.774901152  0.0544452891
  0.779459417  0.0338815153
  0.784017682  0.0182773378
  0.788575888 -0.0072629042
  0.793134153 -0.0319090672
  0.797692358 -0.0364469327
  0.802250624 -0.0252794027
  0.806808889  0.0210439153
  0.811367095  0.0494688228
  0.81592536  0.0496881232
  0.820483565  0.0212632176
  0.825041831 -0.0106873885
  0.829600096 -0.0136732692
  0.834158301 -0.00294434279
  0.838716567  0.00579399616
  0.843274832 -0.0055928356
  0.847833037 -0.0196450297
  0.852391303 -0.027826678
  0.856949508 -0.022192305
  0.861507773  0.00037892512
  0.866066039 -7.65481527E-05
  0.870624244 -0.0261734799
  0.875182509 -0.0288219731
  0.879740715  0.0131996544
  0.88429898  0.0110909818
  0.888857245 -0.0214163139
  0.893415451 -0.0276073776
  0.897973716  0.0102137737
  0.902531981  0.0279097538
  0.907090187  0.0186147261
  0.911648452  0.0486928299
  0.916206658  0.0595229715
  0.920764923  0.0450490452
  0.925323188  0.0237092786
  0.929881394 -0.0133358808
  0.934439659 -0.0123405876
  0.938997865  0.0271337628
  0.94355613  0.0580890737
  0.948114395  0.0643982217
  0.952672601  0.0646175221
  0.957230866  0.048912134
  0.961789131  0.00977517013
  0.966347337 -0.0058290069
  0.970905602  0.0443742685
  0.975463808  0.0913723633
  0.980022073  0.0805422217
  0.984580338  0.0564358756
  0.989138544  0.0317728408
  0.993696809  0.00489991903
  0.998255014 -0.0271687731
  1.00281334 -0.0267133005
  1.00737154 -0.00537353382
  1.01192975  0.0106523782
  1.01648796 -0.0156638548
  1.02104628 -0.0680770203
  1.02560449 -0.065647833
  1.03016269 -0.0498243496
  1.03472102 -0.0472939424
  1.03927922 -0.0239467211
  1.04383743 -0.00549161946
  1.04839575 -0.016760366
  1.05295396 -0.0261734799
  1.05751216 -0.0458431765
  1.06207049 -0.0721594095
  1.06662869 -0.0715015084
  1.0711869 -0.0428572968
  1.07574511 -0.0111259921
  1.08030343  0.00125613285
  1.08486164 -0.0291593596
  1.08941984 -0.0836643279
  1.09397817 -0.0856549144
  1.09853637 -0.0612111837
  1.10309458 -0.0599965863
  1.1076529 -0.071838893
  1.11221111 -0.0783504695
  1.11676931 -0.0751452893
  1.12132752 -0.0757019818
  1.12588584 -0.0938365608
  1.13044405 -0.105662003
  1.13500226 -0.0624426492
  1.13956058 -0.0125598898
  1.14411879 -0.0141118728
  1.14867699 -0.0147697786
  1.15323532 -0.00459754188
  1.15779352 -0.0368855372
  1.16235173 -0.101916999
  1.16691005 -0.102912292
