Total Power only
 Time (s)               Data...
  0.000200940878 -0.0150503023
  0.000401881756  0.027539013
  0.000602822634  0.0122966887
  0.000803763513  0.00331375189
  0.00100470439  0.0095890658
  0.00120564527  0.0578166097
  0.00140658615  0.15605554
  0.00160752703  0.321953177
  0.0018084679  0.549425364
  0.00200940878  0.799784899
  0.00221034954  0.964424312
  0.00241129054  0.998986304
  0.0026122313  0.922551751
  0.00281317229  0.735056818
  0.00301411306  0.536062479
  0.00321505405  0.383750707
  0.00341599481  0.267338842
  0.00361693581  0.179962263
  0.00381787657  0.0898621231
  0.00401881756  0.0211681351
  0.00421975832  0.00874492526
  0.00442069909 -0.0233005881
  0.00462163985 -0.0448023006
