Total Power only
 Time (s)               Data...
  0.00164499215  0.402885795
  0.00328998431  0.280929655
  0.00493497634  0.37130487
  0.00657996861  0.728102148
  0.00822496135  0.278913856
  0.00986995269  0.360217959
  0.011514945  0.174428031
  0.0131599372  0.531561255
  0.0148049295  0.542312264
  0.0164499227  0.448913336
  0.018094914  1.04424739
  0.0197399054  1.31234932
  0.0213848986  1.03786409
  0.0230298899  1.52064908
  0.0246748831  2.12606215
  0.0263198745  3.32009006
  0.0279648677  4.95389891
  0.029609859  7.27106571
  0.0312548503  11.0402832
  0.0328998454  13.9947796
  0.0345448367  17.3833466
  0.0361898281  20.2723293
  0.0378348194  21.4210014
  0.0394798107  19.54496
  0.0411248058  16.4124012
  0.0427697971  12.8904552
  0.0444147885  9.97694683
  0.0460597798  6.8689127
  0.0477047749  3.72862625
  0.0493497662  3.11179018
  0.0509947576  2.2886703
  0.0526397489  1.10304165
  0.054284744  1.22902942
  0.0559297353  0.356522322
  0.0575747266  0.535928845
  0.059219718  0.0984994099
  0.0608647093 -0.411163002
  0.0625097007  0.122353092
  0.064154692 -0.0106899664
  0.0657996908 -0.0526858792
  0.0674446821  0.0252585374
  0.0690896735 -0.279799789
  0.0707346648  0.0262664389
  0.0723796561 -0.3453134
  0.0740246475  0.329308957
  0.0756696388  0.0235786997
  0.0773146302  0.216087967
  0.0789596215  0.273202419
  0.0806046203  0.331996709
  0.0822496116  0.0702781603
  0.083894603  0.26681903
  0.0855395943  0.211048469
  0.0871845856  0.329644918
  0.088829577  0.33434847
  0.0904745683  0.23187843
  0.0921195596  0.325277358
  0.093764551  0.370968908
  0.0954095498  0.103874892
  0.0970545411  0.384071618
  0.0986995324 -0.10509678
  0.100344524 -0.126934662
  0.101989515  0.0454165749
  0.103634506 -0.0835948735
  0.105279498 -0.316084266
  0.106924489  0.0155154848
  0.108569488  0.131424204
  0.110214479 -0.378910154
  0.111859471  0.0118198441
  0.113504462 -0.229068726
  0.115149453  0.0225707982
  0.116794445 -0.44106409
  0.118439436 -0.238475814
  0.120084427  0.461008161
  0.121729419 -0.247210965
  0.123374417  0.184843019
  0.125019401 -0.0688123107
  0.1266644  0.0460885093
  0.128309384  0.197609767
  0.129954383  0.253380358
  0.131599382 -0.0651166737
  0.133244365  0.0427288376
  0.134889364 -0.256618053
  0.136534348 -0.140709311
  0.138179347 -0.320787787
  0.139824331  0.273202419
  0.14146933  0.0696062222
  0.143114313 -0.365135491
  0.144759312 -0.0432787947
  0.146404311  0.0786773413
  0.148049295 -0.0795632675
  0.149694294  0.178123668
  0.151339278  0.109250367
  0.152984276 -0.0963616297
  0.15462926 -0.0731798857
  0.156274259 -0.0211049523
  0.157919243  0.460000247
  0.159564242 -0.300629765
  0.161209241 -0.0080022281
  0.162854224  0.30612722
  0.164499223 -0.226380989
  0.166144207  0.0995073169
  0.167789206 -0.086954549
  0.16943419 -0.135669813
  0.171079189 -0.000274979451
  0.172724172 -0.0510060452
  0.174369171  0.67636317
  0.17601417 -0.207566813
  0.177659154  0.278913856
  0.179304153 -0.0469744354
  0.180949137 -0.100393243
  0.182594135 -0.119879343
  0.184239119  0.255060196
  0.185884118 -0.0731798857
  0.187529102 -0.0211049523
  0.189174101  0.187530756
  0.1908191  0.079685241
  0.192464083  0.0360094905
  0.194109082 -0.252586424
  0.195754066  0.618240833
  0.197399065 -0.0704921484
  0.199044049 -0.1121521
  0.200689048 -0.00565045653
  0.202334046 -0.0452946015
  0.20397903  0.0867405534
  0.205624029  0.174763992
  0.207269013  0.308814943
  0.208914012  0.313518494
  0.210558996  0.677371085
  0.212203994  0.249012768
  0.213848978  0.111266173
  0.215493977  0.165692881
  0.217138976  0.164013043
  0.21878396 -0.0987134054
  0.220428959  0.0642307475
  0.222073942 -0.0940098614
  0.223718941  0.0749816969
  0.225363925  0.471087158
  0.227008924  0.337036192
  0.228653908  0.125712767
  0.230298907 -0.164898962
  0.231943905  0.208360732
  0.233588889 -0.396716416
  0.235233888 -0.294246376
  0.236878872 -0.270728678
  0.238523871  0.264131308
  0.240168855 -0.0624289326
  0.241813853 -0.471301168
  0.243458837 -0.0405910574
  0.245103836 -0.596280992
  0.246748835  0.108578429
  0.248393819 -0.231756464
  0.250038803  0.303103507
  0.251683801 -0.325155377
  0.2533288 -0.063436836
  0.254973799  0.273538381
  0.256618768 -0.378910154
  0.258263767  0.245989069
  0.259908766 -0.316084266
  0.261553764 -0.100393243
  0.263198763 -0.174642012
  0.264843732 -0.224029213
  0.266488731  0.463695884
  0.26813373  0.0612070411
  0.269778728 -0.183713138
  0.271423697  0.470079273
  0.273068696 -0.0691482797
  0.274713695  0.348795056
  0.276358694  0.129408404
  0.278003693  0.319565892
  0.279648662 -0.0506700762
  0.28129366  0.410277069
  0.282938659  0.783536792
  0.284583658 -0.336914241
  0.286228627 -0.0960256681
  0.287873626  0.342411697
  0.289518625  0.25808388
  0.291163623  0.0027487264
  0.292808622  0.311502695
  0.294453591  0.535256922
  0.29609859  0.0118198441
  0.297743589  0.112274073
  0.299388587  0.00812420342
  0.301033556  0.274210304
  0.302678555  0.0232427325
  0.304323554  0.302431583
  0.305968553 -0.113159999
  0.307613552  0.210712492
  0.309258521  0.145534843
  0.310903519  0.326957196
  0.312548518  0.557766736
  0.314193517  0.353162646
  0.315838486  0.355850369
  0.317483485  0.380375981
  0.319128484 -0.160195425
  0.320773482  0.199289605
  0.322418481  0.595059097
  0.32406345  0.188538656
  0.325708449  0.44555366
  0.327353448  0.311502695
  0.328998446  0.245317131
  0.330643415  0.342075706
  0.332288414 -0.189088613
  0.333933413  0.21340023
  0.335578412 -0.125254825
  0.337223411 -0.126598686
  0.33886838 -0.356064379
  0.340513378  0.225159094
  0.342158377  0.200969443
  0.343803376 -0.0127057703
  0.345448345  0.556758821
  0.347093344  0.552391231
  0.348738343  0.204329118
  0.350383341  0.365593433
  0.35202834 -0.0805711672
  0.353673309  0.187530756
  0.355318308  0.452608973
  0.356963307  0.413972735
  0.358608305  0.607825875
  0.360253274  0.518122613
  0.361898273  0.595059097
  0.363543272  0.355178446
  0.365188271  0.493261009
  0.36683327 -0.199167624
  0.368478239  0.232886344
  0.370123237  0.227174893
  0.371768236  0.0407130346
  0.373413235  0.493596971
  0.375058204  0.509051502
  0.376703203  0.019883059
  0.378348202  0.00913210586
  0.3799932  0.72642231
  0.381638199  0.341403782
  0.383283168  0.144526929
  0.384928167  0.46067217
  0.386573166  0.498636484
  0.388218164  0.540632427
  0.389863163 -0.0234567244
  0.391508132  0.285297245
  0.393153131  0.048104316
  0.39479813  0.479150385
  0.396443129  0.0215628967
  0.398088098  0.189210594
  0.399733096  0.239269719
  0.401378095  0.13948743
  0.403023094  0.696521223
  0.404668093  0.480158269
  0.406313062  0.110258266
  0.407958061  0.372312784
  0.409603059  0.103202954
  0.411248058  0.24061358
  0.412893027  0.300751746
  0.414538026  0.169052541
  0.416183025  0.532233238
  0.417828023  0.859465361
  0.419473022 -0.0543657169
  0.421117991  0.0689342842
